x(m)	y(m)	z(m)	Energy (GeV)
-0.699534	0.714599	0.797
-0.685718	0.700136	0.775792
-0.671872	0.685703	0.754583
-0.658026	0.671269	0.733375
-0.657966	0.671327	0.740458
-0.64412	0.656894	0.71925
-0.630274	0.64246	0.698042
-0.616398	0.628055	0.676792
-0.602522	0.61365	0.655583
-0.588646	0.599246	0.634375
-0.57477	0.584841	0.613167
-0.574711	0.584899	0.62025
-0.560835	0.570495	0.599042
-0.546929	0.556119	0.577833
-0.533023	0.541744	0.556583
-0.519118	0.527368	0.535375
-0.505212	0.512992	0.514167
-0.491276	0.498646	0.492958
-0.491247	0.498675	0.500042
-0.477311	0.484329	0.478833
-0.463405	0.469953	0.457625
-0.44944	0.455636	0.436417
-0.435504	0.441289	0.415167
-0.421539	0.426972	0.393958
-0.407574	0.412655	0.379833
-0.393608	0.398337	0.358625
-0.379613	0.384049	0.337417
-0.365648	0.369732	0.316208
-0.351653	0.355444	0.294958
-0.337687	0.341126	0.27375
-0.323663	0.326868	0.259625
-0.309668	0.312579	0.238417
-0.295643	0.298321	0.217208
-0.281618	0.284062	0.196
-0.267623	0.269774	0.17475
-0.253569	0.255544	0.153542
-0.239544	0.241285	0.139417
-0.22549	0.227056	0.118208
-0.211436	0.212826	0.097
-0.197381	0.198597	0.0757917
-0.183327	0.184367	0.0545417
-0.169273	0.170138	0.0333333
-0.169273	0.170138	0.0404167
-0.155189	0.155937	0.0192083
-0.141111	0.141731	-0.002
-0.127056	0.127502	-0.0232
-0.112931	0.113343	-0.0444
-0.0988766	0.0991131	-0.0656
-0.0847514	0.0849541	-0.0869
-0.0847514	0.0849541	-0.0798
-0.0706262	0.0707951	-0.101
-0.0565009	0.0566361	-0.1222
-0.0423757	0.0424771	-0.1434
-0.0286195	0.0286561	-0.1646
0.0286439	-0.0286317	-0.2354
0.0286439	0.0286317	-0.2
0.0423726	0.0424802	-0.2
0.0424433	-0.0424095	-0.2566
0.0565203	0.0566167	-0.2
0.0565911	-0.056546	-0.2778
0.0706681	0.0707532	-0.2
0.0707388	-0.0706825	-0.299
0.0847451	0.0849604	-0.2
0.0849572	-0.0847483	-0.3202
0.0849572	-0.0847483	-0.3131
0.0988929	0.0990969	-0.2
0.099105	-0.0988848	-0.3344
0.11297	0.113304	-0.2
0.113253	-0.113021	-0.3556
0.127118	0.127441	-0.2
0.127471	-0.127087	-0.3768
0.141195	0.141648	-0.2
0.141619	-0.141223	-0.398
0.155295	0.155831	-0.2
0.155826	-0.155301	-0.419208
0.169378	0.170033	-0.2
0.169997	-0.169414	-0.440417
0.169997	-0.169414	-0.433333
0.183461	0.184234	-0.2
0.184198	-0.183497	-0.454542
0.197573	0.198406	-0.2
0.198398	-0.197581	-0.475792
0.211627	0.212636	-0.2
0.212599	-0.211664	-0.497
0.225709	0.226837	-0.2
0.2268	-0.225747	-0.518208
0.239792	0.241039	-0.2
0.241	-0.239831	-0.539417
0.253846	0.255269	-0.2
0.255201	-0.253914	-0.553542
0.267928	0.26947	-0.2
0.269431	-0.267968	-0.57475
0.281982	0.283701	-0.2
0.283661	-0.282022	-0.596
0.296035	0.297932	-0.2
0.297862	-0.296105	-0.617208
0.310088	0.312162	-0.2
0.312092	-0.310159	-0.638417
0.324112	0.326422	-0.2
0.326351	-0.324183	-0.659625
0.338165	0.340653	-0.2
0.340552	-0.338267	-0.67375
0.352189	0.354913	-0.2
0.354811	-0.352291	-0.694958
0.366242	0.369143	-0.2
0.369042	-0.366345	-0.716208
0.380266	0.383403	-0.2
0.383301	-0.380369	-0.737417
0.39429	0.397663	-0.2
0.39756	-0.394393	-0.758625
0.408313	0.411923	-0.2
0.41182	-0.408417	-0.779833
0.422307	0.426212	-0.2
0.42605	-0.422471	-0.793958
0.436331	0.440472	-0.2
0.440338	-0.436466	-0.815167
0.450325	0.454761	-0.2
0.454598	-0.45049	-0.836417
0.464348	0.469021	-0.2
0.468886	-0.464484	-0.857625
0.478342	0.48331	-0.2
0.483146	-0.478508	-0.878833
0.492336	0.497599	-0.2
0.497405	-0.492533	-0.892958
0.497434	-0.492503	-0.900042
0.50633	0.511888	-0.2
0.511694	-0.506527	-0.914167
0.520295	0.526207	-0.2
0.526012	-0.520492	-0.935375
0.534289	0.540496	-0.2
0.5403	-0.534486	-0.956583
0.548283	0.554785	-0.2
0.554589	-0.548481	-0.977833
0.562247	0.569103	-0.2
0.568907	-0.562446	-0.999042
0.576211	0.583422	-0.2
0.583166	-0.57647	-1.01317
0.583195	-0.57644	-1.02025
0.590175	0.59774	-0.2
0.597484	-0.590435	-1.03438
0.60414	0.612058	-0.2
0.611802	-0.6044	-1.05558
0.618104	0.626376	-0.2
0.626119	-0.618364	-1.07679
0.632039	0.640724	-0.2
0.640467	-0.632299	-1.09804
0.646003	0.655042	-0.2
0.654784	-0.646264	-1.11925
0.659937	0.66939	-0.2
0.669073	-0.660259	-1.13338
0.669102	-0.660229	-1.14046
0.673872	0.683737	-0.2
0.68342	-0.674194	-1.15458
0.687806	0.698085	-0.2
0.697767	-0.688129	-1.17579
0.701741	0.712432	-0.2
0.712114	-0.702064	-1.197
5.59286	6.35644	-0.2
6.00779	6.87926	-0.2
6.73374	7.79402	-0.2
7.65928	8.97638	-0.2
8.59223	10.152	-0.19
9.51742	11.334	-0.19
10.4502	12.5094	-0.18
11.3752	13.6911	-0.17
12.3078	14.8663	-0.15
13.2327	16.0479	-0.14
-2.11401	1.98519	1.97611	0.000470757
-2.07756	1.95096	1.95238	0.00282756
-2.04111	1.91673	1.9285	0.00409237
-2.00466	1.8825	1.90446	0.00409254
-1.96822	1.84828	1.88027	0.00409221
-1.93177	1.81405	1.8559	0.00409214
-1.89532	1.77982	1.83137	0.00409207
-1.85887	1.7456	1.80665	0.00409201
-1.82242	1.71137	1.78174	0.00409194
-1.78597	1.67714	1.75664	0.00409187
-1.74952	1.64291	1.73133	0.00409181
-1.71308	1.60869	1.47275	0.00409175
-1.67663	1.57446	1.45227	0.00409169
-1.64018	1.54023	1.4316	0.00409163
-1.60373	1.506	1.41073	0.00409157
-1.56728	1.47178	1.38965	0.00409151
-1.53083	1.43755	1.36835	0.00409146
-1.49439	1.40332	1.34682	0.00409154
-1.45794	1.36909	1.32505	0.00409134
-1.42149	1.33487	1.30302	0.00409129
-1.38504	1.30064	1.28072	0.00409124
-1.34859	1.26641	1.25814	0.00409119
-1.31214	1.23218	1.23526	0.00409115
-1.25747	1.18084	1.20537	0.0164523
-1.23925	1.16373	1.19226	0.0164514
-1.22102	1.14662	1.17909	0.016452
-1.2028	1.1295	1.16588	0.0164512
-1.18457	1.11239	1.1526	0.0164518
-1.16635	1.09528	1.13927	0.016451
-1.14813	1.07816	1.12587	0.0164516
-1.1299	1.06105	0.913971	0.0164509
-1.11168	1.04393	0.903696	0.0164514
-1.09345	1.02682	0.893369	0.0164507
-1.07523	1.00971	0.882988	0.0164512
-1.057	0.992593	0.87255	0.0164506
-1.03878	0.97548	0.862054	0.016451
-1.02056	0.958366	0.851498	0.0164509
-1.00233	0.941252	0.840879	0.0164503
-0.984108	0.924139	0.830195	0.0164507
-0.965883	0.907025	0.819443	0.0164502
-0.947659	0.889911	0.808621	0.0164506
-0.929435	0.872798	0.797727	0.01645
-0.911211	0.855684	0.786756	0.0164504
-0.892987	0.83857	0.775706	0.0164499
-0.874762	0.821457	0.764575	0.0164502
-0.856538	0.804343	0.753358	0.0164498
-0.838314	0.787229	0.742052	0.0164501
-0.82009	0.770115	0.730654	0.0164497
-0.801865	0.753002	0.719159	0.0164499
0.801865	-0.753002	-0.85676	8.7474e-06
0.801865	0.753002	-0.280368	0.01163
0.82009	-0.770115	-0.871776	3.38225e-05
0.82009	0.770115	-0.284111	0.0116286
0.838314	-0.787229	-0.886679	0.000321744
0.838314	0.787229	-0.287823	0.0116268
0.856538	-0.804343	-0.901472	0.00129757
0.856538	0.804343	-0.291507	0.0116255
0.874762	-0.821457	-0.916159	0.0037066
0.874762	0.821457	-0.295163	0.0116237
0.892987	-0.83857	-0.930743	0.003467
0.892987	0.83857	-0.298793	0.0116223
0.911211	-0.855684	-0.945228	0.012201
0.911211	0.855684	-0.302397	0.0116206
0.929435	-0.872798	-0.959618	0.00978141
0.929435	0.872798	-0.305977	0.0116192
0.947659	-0.889911	-0.973915	0.0301461
0.947659	0.889911	-0.309534	0.0116174
0.965883	-0.907025	-0.988122	0.049491
0.965883	0.907025	-0.313069	0.0116161
0.984108	-0.924139	-1.00224	0.0761981
0.984108	0.924139	-0.316583	0.0116143
1.00233	-0.941252	-1.01628	0.0507296
1.00233	0.941252	-0.320077	0.011613
1.02056	-0.958366	-1.03024	0.132507
1.02056	0.958366	-0.323552	0.0116112
1.03878	-0.97548	-1.04411	0.182241
1.03878	0.97548	-0.327008	0.0116099
1.057	-0.992593	-1.05792	0.242558
1.057	0.992593	-0.330446	0.011608
1.07523	-1.00971	-1.07165	0.313913
1.07523	1.00971	-0.333867	0.0116068
1.09345	-1.02682	-1.0853	0.187233
1.09345	1.02682	-0.337272	0.0116049
1.11168	-1.04393	-1.09889	0.442073
1.11168	1.04393	-0.340661	0.0116037
1.1299	-1.06105	-1.11241	0.541503
1.1299	1.06105	-0.344034	0.0116018
1.14813	-1.07816	-1.12587	0.65176
1.14813	1.07816	-0.347394	0.0116006
1.16635	-1.09528	-1.13927	0.370468
1.16635	1.09528	-0.350739	0.0115987
1.18457	-1.11239	-1.1526	0.836219
1.18457	1.11239	-0.354071	0.0115975
1.2028	-1.1295	-1.16588	0.970801
1.2028	1.1295	-0.35739	0.0115956
1.22102	-1.14662	-1.17909	1.11359
1.22102	1.14662	-0.360696	0.0115944
1.23925	-1.16373	-1.19226	0.612623
1.23925	1.16373	-0.363991	0.0115925
1.25747	-1.18084	-1.20537	1.34084
1.25747	1.18084	-0.367274	0.0115913
1.31214	-1.23218	-1.40799	22.4021
1.31214	1.23218	-0.372905	0.00288203
1.34859	-1.26641	-1.43658	9.50076
1.34859	1.26641	-0.37813	0.00288124
1.38504	-1.30064	-1.46483	10.4721
1.38504	1.30064	-0.383294	0.0028804
1.42149	-1.33487	-1.49274	11.2108
1.42149	1.33487	-0.3884	0.00172358
1.42149	1.33487	1.19403e-16	0.00115598
1.45794	-1.36909	-1.52035	9.33897
1.45794	1.36909	-0.393453	0.0005714
1.45794	1.36909	1.22465e-16	0.00230731
1.49439	-1.40332	-1.54765	11.9394
1.49439	1.40332	1.25526e-16	0.00287787
1.53083	-1.43755	-1.57466	14.4292
1.53083	1.43755	1.28588e-16	0.00287703
1.56728	-1.47178	-1.6014	11.8819
1.56728	1.47178	1.3165e-16	0.00287619
1.60373	-1.506	-1.62787	2.3445
1.60373	1.506	1.34711e-16	0.00287535
1.64018	1.54023	1.37773e-16	0.00287451
1.67663	1.57446	1.40834e-16	0.00287367
1.71308	1.60869	1.43896e-16	0.00287283
1.74952	1.64291	1.46958e-16	0.00287199
1.78597	1.67714	1.50019e-16	0.00287116
1.82242	1.71137	1.53081e-16	0.00287032
1.85887	1.7456	1.56142e-16	0.00286949
1.89532	1.77982	1.59204e-16	0.00286865
1.93177	1.81405	1.62266e-16	0.00286782
1.96822	1.84828	1.65327e-16	0.00286699
2.00466	1.8825	1.68389e-16	0.00286616
2.04111	1.91673	1.71451e-16	0.00286532
2.07756	1.95096	1.74512e-16	0.00286449
2.11401	1.98519	1.77574e-16	0.00286366
2.15046	2.01941	1.80635e-16	0.00286284
2.18691	2.05364	1.83697e-16	0.00286201
2.22335	2.08787	1.86759e-16	0.00286118
2.2598	2.1221	1.8982e-16	0.00286035
2.29625	2.15632	1.92882e-16	0.00285953
2.3327	2.19055	1.95943e-16	0.0028587
2.36915	2.22478	1.99005e-16	0.00285788
2.4056	2.25901	2.02067e-16	0.00285706
2.44204	2.29323	2.05128e-16	0.00285623
2.47849	2.32746	2.0819e-16	0.00285541
2.51494	2.36169	2.11252e-16	0.00285459
2.55139	2.39591	2.14313e-16	0.00285377
2.58784	2.43014	2.17375e-16	0.00285295
2.62429	2.46437	2.20436e-16	0.00285213
2.64531	3.19763	2.54114e-16	0.00117662
2.66074	2.4986	2.23498e-16	0.00285132
2.67718	3.23616	2.57176e-16	0.00284237
2.69718	2.53282	2.2656e-16	0.0028505
2.70905	3.27468	2.60237e-16	0.00284156
2.73363	2.56705	2.29621e-16	0.00284968
2.74092	3.31321	2.63299e-16	0.00284075
2.77008	2.60128	2.32683e-16	0.00284887
2.77279	3.35173	2.66361e-16	0.00283995
2.80467	3.39026	2.69422e-16	0.00283914
2.80653	2.63551	2.35745e-16	0.00284805
2.83654	3.42878	2.72484e-16	0.00283833
2.84298	2.66973	2.38806e-16	0.00284724
2.86841	3.46731	2.75546e-16	0.00283753
2.87943	2.70396	2.41868e-16	0.00284643
2.90028	3.50584	2.78607e-16	0.00283673
2.91587	2.73819	2.44929e-16	0.00284561
2.93215	3.54436	2.81669e-16	0.00283592
2.95232	2.77242	2.47991e-16	0.0028448
2.96402	3.58289	2.8473e-16	0.00283512
2.98877	2.80664	2.51053e-16	0.00284399
2.99589	3.62141	2.87792e-16	0.00283432
3.02522	2.84087	2.54114e-16	0.00166656
3.02776	3.65994	2.90854e-16	0.00283352
3.05964	3.69846	2.93915e-16	0.00283272
3.09151	3.73699	2.96977e-16	0.00283192
3.12338	3.77551	3.00038e-16	0.00283112
3.15525	3.81404	3.031e-16	0.00283032
3.18712	3.85257	3.06162e-16	0.00282952
3.21899	3.89109	3.09223e-16	0.00282873
3.25086	3.92962	3.12285e-16	0.00282793
3.28273	3.96814	3.15347e-16	0.00282714
3.3146	4.00667	3.18408e-16	0.00282634
3.34648	4.04519	3.2147e-16	0.00282555
3.37835	4.08372	3.24531e-16	0.00282476
3.41022	4.12225	3.27593e-16	0.00282396
3.44209	4.16077	3.30655e-16	0.00282317
3.47396	4.1993	3.33716e-16	0.00282238
3.50583	4.23782	3.36778e-16	0.00282159
3.5377	4.27635	3.39839e-16	0.0028208
3.56957	4.31487	3.42901e-16	0.00282002
3.60145	4.3534	3.45963e-16	0.00281923
3.63332	4.39193	3.49024e-16	0.00281844
3.66519	4.43045	3.52086e-16	0.00281772
